  23    wind speed [m/s]             pitch [deg]        rot. speed [rpm]         aero power [kw]        aero thrust [kn]
  0.3000000000000000E+01  0.1207609494879506E+01  0.3000000000000000E+01  0.3494566221182844E+03  0.2310919894646258E+03
  0.4000000000000000E+01  0.5349496769511235E-03  0.3000000000000000E+01  0.8764557583434241E+03  0.3604788234275105E+03
  0.5000000000000000E+01  0.5349309775387690E-03  0.3588559880473961E+01  0.1693090730438955E+04  0.5361690253844199E+03
  0.6000000000000000E+01  0.5349309755382001E-03  0.4302395890254189E+01  0.2912910823406587E+04  0.7604766870992385E+03
  0.7000000000000000E+01  0.5349309755382001E-03  0.5015140222241039E+01  0.4593207637812533E+04  0.1015766208047838E+04
  0.8000000000000000E+01  0.5349309755382001E-03  0.5728152902880190E+01  0.6786759923547487E+04  0.1297240868188694E+04
  0.9000000000000000E+01  0.5349309755382001E-03  0.6442500028812749E+01  0.9530593651887979E+04  0.1599725529981759E+04
  0.1000000000000000E+02  0.5349309755382001E-03  0.7159069546969780E+01  0.1284384376262391E+05  0.1917951350325516E+04
  0.1100000000000000E+02  0.1286237829606584E+01  0.7560000000000000E+01  0.1554349668814937E+05  0.1977089187900694E+04
  0.1200000000000000E+02  0.4081036160330516E+01  0.7560000000000000E+01  0.1554503374194745E+05  0.1668277013518550E+04
  0.1300000000000000E+02  0.6033478829741918E+01  0.7560000000000000E+01  0.1554184263935243E+05  0.1487512624790114E+04
  0.1400000000000000E+02  0.7664569978493231E+01  0.7560000000000000E+01  0.1554469942326291E+05  0.1358561580527377E+04
  0.1500000000000000E+02  0.9119149942992742E+01  0.7560000000000000E+01  0.1554410541222926E+05  0.1258397252844042E+04
  0.1600000000000000E+02  0.1046045839225327E+02  0.7560000000000000E+01  0.1554503512886774E+05  0.1177408069956911E+04
  0.1700000000000000E+02  0.1171930711792018E+02  0.7560000000000000E+01  0.1554160799289797E+05  0.1110116711120111E+04
  0.1800000000000000E+02  0.1291613024778203E+02  0.7560000000000000E+01  0.1554624682071743E+05  0.1053739708265381E+04
  0.1900000000000000E+02  0.1406562501951037E+02  0.7560000000000000E+01  0.1553980262012348E+05  0.1004794179672319E+04
  0.2000000000000000E+02  0.1517534217477539E+02  0.7560000000000000E+01  0.1554497155852018E+05  0.9630802546956785E+03
  0.2100000000000000E+02  0.1625717971589767E+02  0.7560000000000000E+01  0.1553894109133742E+05  0.9260881361497183E+03
  0.2200000000000000E+02  0.1730906876133730E+02  0.7560000000000000E+01  0.1554624453830089E+05  0.8941806297760902E+03
  0.2300000000000000E+02  0.1834057021489932E+02  0.7560000000000000E+01  0.1553750635263282E+05  0.8652120396316083E+03
  0.2400000000000000E+02  0.1934534275591914E+02  0.7560000000000000E+01  0.1554692388344785E+05  0.8402882624322832E+03
  0.2500000000000000E+02  0.2033278002201876E+02  0.7560000000000000E+01  0.1554548917613080E+05  0.8176074923196794E+03
